time,x,y,z,phi,theta,psi,x_velocity,y_velocity,z_velocity,phi_velocity,theta_velocity,psi_velocity,rotor_speed1,rotor_speed2,rotor_speed3,rotor_speed4
0.06,2.41618359705e-09,0.0177284965467,10.0417934836,0.450006633008,6.28318431207,0.0,2.4181939015e-07,0.964093367919,1.2181824401,-10.8180559426,-4.97822054566e-05,0.0,900.0,899.99798584,900.0,1.82707044587e-05
0.12000000000000001,1.23061566137e-07,0.0759657367074,10.1354792497,5.40236451451,6.283179456,0.0,5.04896943377e-06,0.9498036746,1.01808211418,-19.2788994319,-0.000143303671112,0.0,900.0,899.99621582,900.0,3.38299869327e-05
0.18,9.19535913989e-07,0.128045991144,10.2150502463,2.26405527577,6.28316898833,0.0,2.45927508796e-05,1.63455405414,1.20695919974,-24.3544515738,-0.000236888181503,0.0,900.0,899.99621582,900.0,4.50219595223e-05
0.23999999999999996,3.64126849719e-06,0.275960238317,10.22723024,1.85255613026,6.28315365667,0.0,7.083672404e-05,3.31890423347,-0.764858243733,-26.8801934142,-0.000292838798578,0.0,900.0,899.997741699,900.0,2.2296080715e-05
0.3,1.01503712163e-05,0.536750233282,10.1609020628,0.437265320718,6.28313508798,0.0,0.000151960822042,5.30300843676,-1.0310952534,-28.0118631284,-0.000342783980279,0.0,900.0,899.99798584,900.0,1.81834766408e-05
0.36000000000000004,2.28089310863e-05,0.86274193282,10.142036873,5.06911923305,6.28311355345,0.0,0.000276405843466,5.0690627244,0.335952627143,-28.493971791,-0.000391112574718,0.0,900.0,899.998046875,900.0,1.60223025887e-05
0.4200000000000001,4.42771674383e-05,1.10759493698,10.1472885109,3.36179122581,6.28308722443,0.0,0.000447878894917,3.194487991,-0.665127338992,-28.6948404591,-0.000534396664499,0.0,900.0,899.99420166,900.0,6.62983366055e-05
0.48000000000000015,7.79541961773e-05,1.30481082959,10.0293823083,1.63933128335,6.28305271765,0.0,0.000684164809101,3.86339540176,-3.074696783,-28.777747931,-0.000656783451617,0.0,900.0,899.995056152,900.0,4.82738869323e-05
0.5400000000000001,0.000128073125324,1.59437251872,9.84236927799,6.19524186812,6.28301134411,0.0,0.001001006094,5.53201982652,-2.69354568875,-28.8118340696,-0.000755067642031,0.0,900.0,899.996032715,900.0,3.47390887327e-05
0.6000000000000002,0.000199849406876,1.90272139182,9.7178078237,4.46623189732,6.282960893,0.0,0.00140439702302,4.35365751926,-1.78445465274,-28.8258255034,-0.00101297348646,0.0,900.0,899.989562988,900.0,0.000123501726193
0.6600000000000003,0.00029944622148,2.11333753305,9.56082295438,2.73655098002,6.28289340686,0.0,0.00193747156792,3.05090316072,-3.80676122109,-28.8315648058,-0.00134953114792,0.0,899.99987793,899.98626709,900.0,0.000167288992088
0.7200000000000003,0.000435245511875,2.33508987831,9.27057455814,1.00660180503,6.28280607257,0.0,0.00261710026656,4.63083978489,-5.43196632588,-28.8339184347,-0.00166854115512,0.0,900.0,899.987121582,900.0,0.000143216282595
0.7800000000000004,0.000618206770363,2.65049815116,8.97438862295,5.5597290997,6.28269972019,0.0,0.00350653082856,5.40475872073,-4.25237147738,-28.8348835262,-0.00198102938466,0.0,900.0,899.987365723,900.0,0.000138504139613
0.8400000000000004,0.000860371902146,2.92502553951,8.73049306311,3.82962665615,6.2825559363,0.0,0.00461960027885,3.59227031455,-4.37224280238,-28.8352792381,-0.00324033325602,0.0,899.999694824,899.948730469,900.0,0.000623273954261
0.9000000000000005,0.00118049955366,3.11884080206,8.39463118554,2.09950602791,6.28233785972,0.0,0.00609571058491,3.37488858771,-6.85004369831,-28.8354414869,-0.00443511405,0.0,899.999328613,899.951049805,900.0,0.000838971347548
0.9600000000000005,0.00160320885807,3.37853456565,7.9552595529,0.369377949187,6.28204274935,0.0,0.00810790176275,5.2624128938,-7.26428472932,-28.8355080113,-0.00590243567727,0.0,899.999450684,899.940124512,900.0,0.000987257924862
1.0200000000000005,0.00216468769988,3.69681181997,7.55954747022,4.92243212378,6.28165489379,0.0,0.0106842442001,4.87988861689,-6.05873370395,-28.8355352872,-0.00761220200074,0.0,899.999572754,899.930358887,900.0,0.00130373821594
1.0800000000000005,0.00290900228313,3.93133262277,7.17064932308,3.19229979439,6.28111333844,0.0,0.0143110720228,3.12128426511,-7.3905246368,-28.8355441631,-0.0120166594527,0.0,899.989257812,899.811035156,899.99987793,0.00465062400326
1.1400000000000006,0.00390111563811,4.13322993288,6.65572426404,1.46216711276,6.28027858869,0.0,0.0189955744776,4.03852806559,-9.51458286714,-28.8355454949,-0.0180030897959,0.0,899.987792969,899.745666504,899.999755859,0.00713699590415
1.2000000000000006,0.00524158461958,4.42886736274,6.09474804201,6.01521970478,6.27904363941,0.0,0.025951262319,5.46096685579,-8.82909922993,-28.8355448872,-0.0263124410828,0.0,899.986938477,899.650512695,899.999694824,0.010868136771
1.2600000000000007,0.00705444982615,4.72661705163,5.59127119117,4.28508776235,6.27695061331,0.0,0.0351802037887,4.11774239204,-8.30674772874,-28.835513487,-0.0636110497165,0.0,899.933288574,898.421691895,899.998046875,0.0624339431524
1.3200000000000007,0.00960605235603,4.93079709856,5.03383267716,2.55495764717,6.27274862402,0.0,0.0506154028482,3.1272394605,-10.4747807153,-28.8354844602,-0.087726018352,0.0,899.790527344,898.812133789,899.997192383,0.0488648600876
1.3800000000000008,0.0133140717852,5.16182327784,4.35676800169,0.824830078295,6.2669995331,0.0,0.0754449992923,4.81043631524,-11.6251984662,-28.8354217943,-0.121490082655,0.0,899.698730469,898.327575684,899.994506836,0.0844160541892
1.4400000000000008,0.0188912170386,5.47637839493,3.69231822917,5.37789372998,6.25912554301,0.0,0.111028149307,5.22822945467,-10.5048189265,-28.8352690721,-0.171619337318,0.0,899.540588379,897.49822998,899.987792969,0.160353168845
1.5000000000000009,0.0269320543864,5.73880041522,3.05947065461,3.64780001463,6.25668269207,0.0,0.158625071766,3.43851951495,-11.0941483537,-28.8343390313,-0.456946250136,0.0,897.809692383,886.119934082,899.941955566,0.695925712585
1.560000000000001,0.0381985492499,5.93541809462,2.32472874569,1.91778721502,6.22871094166,0.0,0.222610938738,3.54907032677,-13.3068834071,-28.832276793,-0.500087286555,0.0,893.143127441,891.271118164,899.864196777,0.794281721115
1.620000000000001,0.0552368413888,6.204704105,1.51316552089,0.187913958083,6.1984918874,0.0,0.354962759515,5.27803313457,-13.271792278,-28.8296718192,-0.51179035794,0.0,889.79901123,889.188476562,899.760131836,1.28554904461
1.680000000000001,0.0809963291485,6.51449041589,0.745390112627,4.74143179901,6.16864455167,0.0,0.512198716223,4.66222414176,-12.4903944767,-28.8251050776,-0.478256944263,0.0,886.31237793,887.551696777,899.577087402,2.05478954315
1.740000000000001,0.116023542202,6.74368581757,0.0,3.01396110243,0.128690215349,0.0,0.590576792586,3.26865467196,-14.0677297556,-28.7658630408,0.740399290395,0.0,824.115783691,876.301574707,896.547119141,5.55498790741
1.8000000000000012,0.144239132507,6.9541586999,0.0,1.41388456498,0.429617358393,0.0,0.269717273056,4.02276116555,-15.4291115154,-27.9853931615,-0.56172934624,0.0,790.015075684,727.616394043,856.338317871,36.066860199
1.8600000000000012,0.139396731293,7.23097254355,0.0,6.02351324823,0.415991904344,0.0,-0.399846755949,4.92216560791,-15.0301619897,-27.862520676,-0.974265572129,0.0,781.049987793,761.253417969,867.610046387,37.6379127502
1.9200000000000013,0.0907838954589,7.51088734965,0.0,4.3618588533,1.27000478473,0.0,-1.43828012948,4.26828336899,-15.0851043133,-28.179351348,-3.37530973362,0.0,822.251403809,705.467956543,887.267456055,32.8117828369
1.9800000000000013,-0.0412158339496,7.75992847189,0.0,2.76254169267,1.07036728641,0.0,-2.92323998042,4.10739646175,-16.1434744561,-27.5222519449,-3.58150971122,0.0,754.404541016,736.650390625,844.634338379,44.1151428223
2.0400000000000014,-0.257103634429,8.01807566985,0.0,1.11040505815,1.02149868475,0.0,-4.28379957878,4.64496862366,-16.8651131429,-27.5878407324,-2.64299636955,0.0,747.412963867,785.295532227,863.15435791,31.7520141602
2.1000000000000014,-0.561621098696,8.30993812401,0.0,5.74903669251,0.901315980901,0.0,-5.87895627864,4.93581838657,-16.6812659047,-27.911721709,-2.22006535318,0.0,780.981933594,796.661865234,878.91418457,24.0807952881
2.1600000000000015,-0.961881681694,8.59059640696,0.0,4.08927255764,1.261106669,0.0,-7.46929599006,4.37307061877,-17.1639341782,-28.2787910598,-4.0016370003,0.0,806.899169922,716.486755371,891.167480469,24.1574554443
2.2200000000000015,-1.44868611499,8.85119316807,0.0,2.41194674549,1.07612185699,0.0,-8.67357117503,4.35127432071,-18.1195119411,-28.0070571825,-3.48489086414,0.0,744.373352051,760.001342773,868.582397461,32.6400604248
2.2800000000000016,-2.00142540061,9.12739543412,0.0,0.731565687959,0.931800915585,0.0,-9.82780608048,4.93509345485,-18.4866858251,-28.1439101764,-2.91981844937,0.0,755.594299316,775.647033691,881.864013672,24.2439537048
2.3400000000000016,-2.64050840259,9.42784111873,0.0,5.33057452375,0.924125088625,0.0,-11.5222677976,4.97002257361,-18.435537622,-28.3846710104,-3.98508866985,0.0,788.356567383,730.319458008,891.500732422,19.6455993652
2.4000000000000017,-3.37997633253,9.70449425803,0.0,3.62827991172,1.01042833682,0.0,-12.9814570098,4.32652042767,-19.3226208854,-28.5476585139,-5.44453482576,0.0,828.343383789,748.469482422,894.805969238,18.0329837799
2.4600000000000017,-4.16985072963,9.96584964717,0.0,1.91536483906,0.686227361547,0.0,-13.2641900751,4.40468699936,-20.0500683455,-28.5493419774,-5.64295517255,0.0,736.793701172,706.365234375,891.624816895,21.1336803436
2.520000000000002,-4.98912768243,10.2508387996,0.0,0.201753493706,0.735317766063,0.0,-14.2432855561,5.0132016833,-20.0065326428,-28.645723103,-7.22985524557,0.0,757.328125,648.4921875,896.354370117,15.7434215546
2.580000000000002,-5.89339938652,10.5468771898,0.0,4.76540048229,0.611222887846,0.0,-15.880562278,4.64728201469,-20.0109935263,-28.722545837,-8.65478609306,0.0,795.669311523,686.280639648,898.194213867,9.1293592453
2.640000000000002,-6.8718063188,10.8052011841,0.0,3.04179187875,0.224813787235,0.0,-16.5198893284,4.22429188175,-21.1093770702,-28.7318227073,-9.61088302845,0.0,714.49810791,601.855957031,897.224975586,15.3932342529
2.700000000000002,-7.86928819716,11.065525765,0.0,1.31741530013,6.08192637351,0.0,-16.7787423812,4.75905687327,-21.633806583,-28.7599230532,-10.6241630133,0.0,737.772888184,611.376220703,898.479736328,10.5481920242
2.760000000000002,-8.87594582321,11.3833849996,0.0,5.87433536635,5.97564329358,0.0,-16.8023125715,5.45514425947,-21.3443719929,-28.7995020791,-8.9063692477,0.0,797.177307129,814.038391113,899.738830566,2.68523287773
2.820000000000002,-9.8814107558,11.6999187204,0.0,4.1459532132,5.46234606465,0.0,-16.528030529,4.84134995186,-22.1040229956,-28.8197703167,-8.60891535997,0.0,857.448364258,825.474060059,899.948486328,1.40773010254
2.880000000000002,-10.8415805159,11.9706586714,0.0,2.41663106902,5.08823354667,0.0,-15.4560353095,4.45239333627,-24.3236234946,-28.8257219841,-7.74703851329,0.0,809.737915039,806.974609375,899.823547363,1.9426343441
